Time(s),X(m),Y(m),Z(m),Pitch(deg),Roll(deg),Yaw(deg)
0.00,7.49,-1.78,-6.87,8.00,0.00,0.00
0.11,7.49,-1.78,-6.87,8.00,0.00,0.00
0.22,7.49,-1.78,-6.87,8.00,0.00,0.00
0.33,7.49,-1.78,-6.87,8.00,0.00,0.00
0.43,7.49,-1.78,-6.87,8.00,0.00,0.00
0.54,7.49,-1.78,-6.87,8.00,0.00,0.00
0.65,7.49,-1.78,-6.87,8.00,0.00,0.00
0.76,7.49,-1.78,-6.87,8.00,0.00,0.00
0.87,7.49,-1.78,-6.87,8.00,0.00,0.00
0.98,7.49,-1.78,-6.87,8.00,0.00,0.00
1.09,7.49,-1.78,-6.87,8.00,0.00,0.00
1.20,7.49,-1.78,-6.87,8.00,0.00,0.00
1.31,7.49,-1.78,-6.87,8.00,0.00,0.00
1.41,7.49,-1.78,-6.87,8.00,0.00,0.00
1.52,7.49,-1.78,-6.87,8.00,0.00,0.00
1.63,7.49,-1.78,-6.87,8.00,0.00,0.00
1.74,7.49,-1.78,-6.87,8.00,0.00,0.00
1.85,7.49,-1.78,-6.87,8.00,0.00,0.00
1.96,7.49,-1.78,-6.87,8.00,0.00,0.00
2.07,7.49,-1.78,-6.87,8.00,0.00,0.00
2.18,7.49,-1.78,-6.87,8.00,0.00,0.00
2.28,8.44,-1.78,-7.00,8.00,0.00,0.00
2.39,9.43,-1.78,-7.14,8.00,0.00,0.00
2.50,10.42,-1.78,-7.28,8.00,0.00,0.00
2.61,11.67,-1.78,-7.46,8.00,0.00,0.00
2.72,12.62,-1.78,-7.59,8.00,0.00,0.00
2.83,13.89,-1.78,-7.77,8.00,0.00,0.00
2.94,14.80,-1.78,-7.90,8.00,0.00,0.00
3.04,15.95,-1.78,-8.06,7.00,0.00,0.00
3.15,16.89,-1.78,-8.16,4.00,0.00,0.00
3.26,18.16,-1.78,-8.23,3.00,0.00,0.00
3.37,19.12,-1.78,-8.28,3.00,0.00,0.00
3.48,20.36,-1.78,-8.34,3.00,0.00,0.00
3.59,21.28,-1.79,-8.39,3.00,0.00,-2.00
3.69,22.48,-1.86,-8.45,3.00,0.00,-4.00
3.80,23.40,-1.92,-8.50,3.00,0.00,-4.00
3.91,24.60,-2.00,-8.57,3.00,0.00,-4.00
4.02,25.52,-2.07,-8.61,3.00,0.00,-4.00
4.13,26.69,-2.16,-8.68,3.00,0.00,-6.00
4.24,27.86,-2.31,-8.74,3.00,0.00,-10.00
4.35,28.72,-2.46,-8.78,3.00,0.00,-10.00
4.46,29.92,-2.64,-8.85,3.00,0.00,-6.00
4.56,31.07,-2.77,-8.91,3.00,0.00,-8.00
4.67,32.05,-2.92,-8.96,3.00,0.00,-11.00
4.78,33.09,-3.15,-9.02,3.00,0.00,-15.00
4.89,34.18,-3.47,-9.07,3.00,0.00,-18.00
5.00,35.28,-3.80,-9.13,3.00,0.00,-14.00
5.11,36.42,-4.09,-9.20,2.00,0.00,-14.00
5.22,37.23,-4.29,-9.22,1.00,0.00,-15.00
5.33,38.32,-4.61,-9.24,1.00,0.00,-19.00
5.43,39.38,-5.00,-9.26,1.00,0.00,-22.00
5.54,40.42,-5.40,-9.28,1.00,0.00,-18.00
5.65,41.50,-5.71,-9.29,1.00,0.00,-15.00
5.76,42.58,-6.00,-9.31,1.00,0.00,-15.00
5.87,43.66,-6.30,-9.33,1.00,0.00,-17.00
5.98,44.46,-6.56,-9.35,1.00,0.00,-20.00
6.09,45.50,-6.95,-9.37,1.00,0.00,-21.00
6.20,46.51,-7.34,-9.39,1.00,0.00,-21.00
6.31,47.53,-7.73,-9.41,1.00,0.00,-19.00
6.41,48.58,-8.06,-9.42,1.00,0.00,-17.00
6.52,49.65,-8.38,-9.44,1.00,0.00,-15.00
6.63,50.73,-8.64,-9.46,1.00,0.00,-11.00
6.74,51.88,-8.85,-9.48,1.00,0.00,-10.00
6.85,52.93,-9.03,-9.50,1.00,0.00,-7.00
6.95,54.07,-9.15,-9.52,1.00,0.00,-6.00
7.06,55.15,-9.29,-9.54,1.00,0.00,-8.00
7.17,56.23,-9.42,-9.56,1.00,0.00,-5.00
7.28,57.34,-9.48,-9.58,1.00,0.00,-1.00
7.39,58.17,-9.48,-9.59,1.00,0.00,2.00
7.50,59.26,-9.45,-9.61,1.00,0.00,2.00
7.60,59.83,-9.43,-9.62,1.00,0.00,2.00
7.71,59.83,-9.43,-9.62,1.00,0.00,2.00
7.82,59.83,-9.43,-9.62,1.00,0.00,4.00
7.93,59.83,-9.43,-9.62,1.00,0.00,6.00
8.04,59.83,-9.43,-9.62,1.00,0.00,6.00
8.15,59.83,-9.43,-9.62,1.00,0.00,6.00
8.26,59.83,-9.43,-9.62,1.00,0.00,6.00
8.37,59.83,-9.43,-9.62,1.00,0.00,6.00
8.47,59.83,-9.43,-9.62,1.00,0.00,6.00
8.58,59.83,-9.43,-9.62,1.00,0.00,6.00
8.69,59.83,-9.43,-9.62,1.00,0.00,6.00
8.80,59.83,-9.43,-9.62,1.00,0.00,6.00
8.91,59.83,-9.43,-9.62,1.00,0.00,6.00
9.02,59.83,-9.43,-9.62,1.00,0.00,6.00
9.13,59.83,-9.43,-9.62,1.00,0.00,6.00
9.24,59.83,-9.43,-9.62,1.00,0.00,6.00
9.35,59.83,-9.43,-9.62,1.00,0.00,6.00
9.45,59.83,-9.43,-9.62,1.00,0.00,6.00
9.56,59.83,-9.43,-9.62,1.00,0.00,6.00
9.67,59.83,-9.43,-9.62,1.00,0.00,6.00
9.78,59.83,-9.43,-9.62,1.00,0.00,6.00
9.89,59.83,-9.43,-9.62,1.00,0.00,6.00
10.00,59.83,-9.43,-9.62,1.00,0.00,6.00
10.10,59.83,-9.43,-9.62,1.00,0.00,6.00
10.21,59.83,-9.43,-9.62,1.00,0.00,6.00
10.32,59.83,-9.43,-9.62,1.00,0.00,6.00
10.43,59.83,-9.43,-9.62,1.00,0.00,6.00
10.54,59.83,-9.43,-9.62,1.00,0.00,6.00
10.65,59.83,-9.43,-9.62,1.00,0.00,6.00
10.76,59.83,-9.43,-9.62,1.00,0.00,6.00
10.87,59.83,-9.43,-9.62,1.00,0.00,8.00
10.97,60.36,-9.34,-9.63,1.00,0.00,11.00
11.08,61.48,-9.09,-9.65,1.00,0.00,15.00
11.19,62.59,-8.76,-9.67,1.00,0.00,19.00
11.30,63.71,-8.34,-9.69,1.00,0.00,22.00
11.41,64.59,-7.99,-9.71,1.00,0.00,23.00
11.52,65.69,-7.49,-9.73,1.00,0.00,27.00
11.63,66.53,-7.04,-9.75,1.00,0.00,30.00
11.73,67.38,-6.53,-9.76,1.00,0.00,33.00
11.84,68.43,-5.81,-9.79,1.00,0.00,37.00
11.95,69.19,-5.22,-9.80,1.00,0.00,40.00
12.06,70.16,-4.35,-9.83,1.00,0.00,44.00
12.17,70.87,-3.65,-9.84,1.00,0.00,47.00
12.28,71.54,-2.90,-9.86,1.00,0.00,50.00
12.38,72.20,-2.12,-9.88,1.00,0.00,50.00
12.49,72.88,-1.31,-9.90,1.00,0.00,48.00
12.60,73.58,-0.56,-9.92,1.00,0.00,45.00
12.71,74.58,0.40,-9.94,1.00,0.00,43.00
12.82,75.35,1.10,-9.96,1.00,0.00,41.00
12.93,76.13,1.76,-9.98,1.00,0.00,38.00
13.04,76.96,2.39,-9.99,1.00,0.00,35.00
13.14,77.84,2.98,-10.01,1.00,0.00,32.00
13.25,78.69,3.49,-10.03,1.00,0.00,29.00
13.36,79.89,4.16,-10.05,1.00,0.00,29.00
13.47,80.81,4.64,-10.07,1.00,0.00,26.00
13.58,81.68,5.05,-10.09,1.00,0.00,23.00
13.68,82.60,5.42,-10.11,1.00,0.00,20.00
13.79,82.60,5.42,-10.11,1.00,0.00,16.00
13.90,82.60,5.42,-10.11,1.00,0.00,12.00
14.01,82.60,5.42,-10.11,1.00,0.00,8.00
14.12,82.60,5.42,-10.11,1.00,0.00,5.00
14.23,82.60,5.42,-10.11,1.00,0.00,-0.00
14.34,82.60,5.42,-10.11,1.00,0.00,-4.00
14.45,82.60,5.42,-10.11,1.00,0.00,-8.00
14.56,82.60,5.42,-10.11,1.00,0.00,-12.00
14.67,82.60,5.42,-10.11,1.00,0.00,-16.00
14.78,82.60,5.42,-10.11,1.00,0.00,-20.00
14.89,82.60,5.42,-10.11,1.00,0.00,-24.00
14.99,82.60,5.42,-10.11,1.00,0.00,-28.00
15.10,82.60,5.42,-10.11,1.00,0.00,-28.00
15.21,82.60,5.42,-10.11,1.00,0.00,-28.00
15.32,82.60,5.42,-10.11,1.00,0.00,-28.00
15.43,82.60,5.42,-10.11,1.00,0.00,-28.00
15.53,82.60,5.42,-10.11,1.00,0.00,-28.00
15.64,82.60,5.42,-10.11,1.00,0.00,-28.00
15.75,82.60,5.42,-10.11,1.00,0.00,-28.00
15.86,83.50,4.94,-10.12,1.00,0.00,-28.00
15.97,84.44,4.44,-10.14,1.00,0.00,-28.00
16.08,85.37,3.95,-10.16,1.00,0.00,-28.00
16.19,86.29,3.46,-10.18,1.00,0.00,-28.00
16.30,87.24,2.95,-10.20,1.00,0.00,-28.00
16.40,88.37,2.35,-10.22,1.00,0.00,-28.00
16.51,89.33,1.84,-10.24,1.00,0.00,-28.00
16.62,90.25,1.35,-10.26,1.00,0.00,-28.00
16.73,91.18,0.86,-10.27,1.00,0.00,-28.00
16.84,92.12,0.36,-10.29,1.00,0.00,-28.00
16.95,93.07,-0.14,-10.31,1.00,0.00,-28.00
17.05,94.01,-0.64,-10.33,1.00,0.00,-28.00
17.16,94.95,-1.14,-10.35,1.00,0.00,-26.00
17.27,95.95,-1.59,-10.37,1.00,0.00,-22.00
17.38,96.91,-1.95,-10.39,1.00,0.00,-18.00
17.49,97.92,-2.28,-10.40,1.00,0.00,-18.00
17.60,99.15,-2.68,-10.43,1.00,0.00,-18.00
17.71,100.15,-3.01,-10.45,1.00,0.00,-18.00
17.82,101.15,-3.33,-10.46,1.00,0.00,-18.00
17.93,102.13,-3.65,-10.48,1.00,0.00,-18.00
18.04,103.14,-3.98,-10.50,1.00,0.00,-18.00
18.14,104.13,-4.30,-10.52,1.00,0.00,-17.00
18.25,105.39,-4.64,-10.54,1.00,0.00,-12.00
18.36,106.43,-4.84,-10.56,1.00,0.00,-10.00
18.47,107.48,-5.03,-10.58,1.00,0.00,-12.00
18.58,108.55,-5.28,-10.60,1.00,0.00,-16.00
18.69,109.53,-5.59,-10.62,1.00,0.00,-20.00
18.79,110.50,-5.97,-10.63,1.00,0.00,-24.00
18.90,111.49,-6.42,-10.65,1.00,0.00,-24.00
19.01,112.46,-6.85,-10.67,1.00,0.00,-24.00
19.12,113.44,-7.28,-10.69,1.00,0.00,-24.00
19.23,114.18,-7.61,-10.70,1.00,0.00,-24.00
19.34,114.18,-7.61,-10.70,1.00,0.00,-24.00
19.44,114.18,-7.61,-10.70,1.00,0.00,-24.00
19.55,114.18,-7.61,-10.70,1.00,0.00,-24.00
19.66,114.18,-7.61,-10.70,1.00,0.00,-24.00
19.77,114.18,-7.61,-10.70,1.00,0.00,-24.00
19.88,114.18,-7.61,-10.70,1.00,0.00,-24.00
19.99,114.18,-7.61,-10.70,1.00,0.00,-24.00
20.10,114.18,-7.61,-10.70,1.00,0.00,-20.00
20.21,114.18,-7.61,-10.70,1.00,0.00,-19.00
20.31,114.18,-7.61,-10.70,1.00,0.00,-19.00
20.42,114.18,-7.61,-10.70,1.00,0.00,-19.00
20.53,114.18,-7.61,-10.70,1.00,0.00,-19.00
20.64,114.18,-7.61,-10.70,1.00,0.00,-19.00
20.75,114.18,-7.61,-10.70,1.00,0.00,-19.00
20.86,114.18,-7.61,-10.70,1.00,0.00,-19.00
20.96,114.18,-7.61,-10.70,1.00,0.00,-19.00
21.07,114.18,-7.61,-10.70,1.00,0.00,-19.00
21.18,114.18,-7.61,-10.70,1.00,0.00,-19.00
21.29,114.18,-7.61,-10.70,1.00,0.00,-19.00
21.40,114.18,-7.61,-10.70,1.00,0.00,-19.00
21.50,114.18,-7.61,-10.70,1.00,0.00,-19.00
21.61,114.18,-7.61,-10.70,1.00,0.00,-19.00
21.72,114.18,-7.61,-10.70,1.00,0.00,-18.00
21.83,114.18,-7.61,-10.70,1.00,0.00,-14.00
21.94,114.18,-7.61,-10.70,1.00,0.00,-10.00
22.05,114.18,-7.61,-10.70,1.00,0.00,-6.00
22.15,114.18,-7.61,-10.70,1.00,0.00,-2.00
22.26,114.69,-7.61,-10.71,1.00,0.00,2.00
22.37,115.75,-7.54,-10.73,1.00,0.00,6.00
22.48,116.83,-7.40,-10.75,1.00,0.00,10.00
22.59,117.89,-7.19,-10.77,1.00,0.00,14.00
22.70,118.96,-6.92,-10.79,1.00,0.00,14.00
22.81,120.00,-6.63,-10.81,1.00,0.00,18.00
22.92,121.05,-6.26,-10.83,1.00,0.00,22.00
23.02,122.08,-5.81,-10.85,1.00,0.00,26.00
23.13,123.12,-5.28,-10.87,1.00,0.00,28.00
23.24,123.89,-4.87,-10.88,1.00,0.00,28.00
23.35,124.93,-4.32,-10.90,1.00,0.00,28.00
23.46,125.94,-3.78,-10.92,1.00,0.00,28.00
23.57,127.00,-3.22,-10.94,1.00,0.00,26.00
23.68,127.78,-2.85,-10.96,1.00,0.00,23.00
23.79,128.80,-2.45,-10.98,1.00,0.00,19.00
23.89,129.88,-2.11,-11.00,1.00,0.00,15.00
24.00,130.96,-1.85,-11.02,1.00,0.00,11.00
24.11,132.00,-1.68,-11.03,1.00,0.00,7.00
24.22,133.09,-1.57,-11.05,1.00,0.00,3.00
24.33,133.40,-1.56,-11.06,1.00,0.00,-1.00
24.43,133.40,-1.56,-11.06,1.00,0.00,-5.00
24.54,133.40,-1.56,-11.06,1.00,0.00,-8.00
24.65,133.40,-1.56,-11.06,1.00,0.00,-8.00
24.76,133.40,-1.56,-11.06,1.00,0.00,-8.00
24.87,133.40,-1.56,-11.06,1.00,0.00,-8.00
24.98,133.40,-1.56,-11.06,1.00,0.00,-4.00
25.09,133.40,-1.56,-11.06,1.00,0.00,-3.00
25.20,133.40,-1.56,-11.06,1.00,0.00,-3.00
25.31,133.40,-1.56,-11.06,1.00,0.00,-3.00
25.42,133.40,-1.56,-11.06,1.00,0.00,-3.00
25.53,133.40,-1.56,-11.06,1.00,0.00,-3.00
25.64,133.40,-1.56,-11.06,1.00,0.00,-3.00
25.74,133.40,-1.56,-11.06,1.00,0.00,-3.00
25.85,133.40,-1.56,-11.06,1.00,0.00,-3.00
25.96,133.40,-1.56,-11.06,1.00,0.00,-3.00
26.07,133.40,-1.56,-11.06,1.00,0.00,-3.00
26.18,133.40,-1.56,-11.06,1.00,0.00,-3.00
26.29,133.40,-1.56,-11.06,1.00,0.00,-3.00
26.40,133.40,-1.56,-11.06,1.00,0.00,-3.00
26.51,133.40,-1.56,-11.06,1.00,0.00,-3.00
26.62,133.40,-1.56,-11.06,1.00,0.00,-3.00
26.73,133.40,-1.56,-11.06,1.00,0.00,-3.00
26.83,133.40,-1.56,-11.06,1.00,0.00,-3.00
26.94,133.40,-1.56,-11.06,1.00,0.00,-3.00
27.05,133.40,-1.56,-11.06,1.00,0.00,-3.00
27.16,133.40,-1.56,-11.06,1.00,0.00,-3.00
27.27,133.40,-1.56,-11.06,1.00,0.00,-3.00
27.38,133.40,-1.56,-11.06,1.00,0.00,-3.00
27.49,133.40,-1.56,-11.06,1.00,0.00,-3.00
27.60,133.40,-1.56,-11.06,1.00,0.00,-3.00
27.70,133.40,-1.56,-11.06,1.00,0.00,-3.00
27.81,133.40,-1.56,-11.06,1.00,0.00,-3.00
27.92,133.40,-1.56,-11.06,1.00,0.00,-3.00
28.03,133.40,-1.56,-11.06,1.00,0.00,-3.00
28.14,133.40,-1.56,-11.06,1.00,0.00,-3.00
28.25,133.40,-1.56,-11.06,1.00,0.00,-3.00
28.36,133.40,-1.56,-11.06,1.00,0.00,-3.00
28.46,133.40,-1.56,-11.06,1.00,0.00,-3.00
28.57,133.40,-1.56,-11.06,1.00,0.00,-3.00
28.68,133.40,-1.56,-11.06,1.00,0.00,-3.00
28.79,133.40,-1.56,-11.06,1.00,0.00,-3.00
28.90,133.40,-1.56,-11.06,1.00,0.00,-3.00
29.01,133.40,-1.56,-11.06,1.00,0.00,-3.00
29.11,133.40,-1.56,-11.06,1.00,0.00,-3.00
29.22,133.40,-1.56,-11.06,1.00,0.00,-3.00
29.34,133.40,-1.56,-11.06,1.00,0.00,-3.00
29.46,133.40,-1.56,-11.06,1.00,0.00,-3.00
29.57,133.40,-1.56,-11.06,1.00,0.00,-3.00
29.67,133.40,-1.56,-11.06,1.00,0.00,-3.00
29.78,133.40,-1.56,-11.06,1.00,0.00,-3.00
29.89,133.40,-1.56,-11.06,1.00,0.00,-3.00
30.00,133.40,-1.56,-11.06,1.00,0.00,-3.00
30.11,133.40,-1.56,-11.06,1.00,0.00,-3.00
30.22,133.40,-1.56,-11.06,1.00,0.00,-3.00
30.33,133.40,-1.56,-11.06,1.00,0.00,-3.00
30.43,133.40,-1.56,-11.06,1.00,0.00,-3.00
30.54,133.40,-1.56,-11.06,1.00,0.00,-3.00
30.65,133.40,-1.56,-11.06,1.00,0.00,-3.00
30.76,133.40,-1.56,-11.06,1.00,0.00,-3.00
30.87,133.40,-1.56,-11.06,1.00,0.00,-3.00
30.98,133.40,-1.56,-11.06,1.00,0.00,-3.00
31.09,133.40,-1.56,-11.06,1.00,0.00,-3.00
31.20,133.40,-1.56,-11.06,1.00,0.00,-3.00
